height(km) press(hPa) W(M/S) T(C) T-TE(C) QV(g/kg) SAT(g/kg) QC(g/kg) QH(g/kg) QI(g/kg) "Buoy(1e-2 m/s2)" radius(m) dwdt_entr(unitless) plumeT(K) envT(K)
0.0000 926.0001 9.3712 34.1926 0.1425 7.6787 38.6772 0.0000 0.0000 0.0000 1.5857 1.5451 -0.0156 307.4926 307.3500
0.0500 920.7949 9.3754 33.4937 0.4949 7.6830 37.3353 0.0000 0.0000 0.0000 1.5857 1.5587 -0.0156 306.7937 306.2987
0.1500 910.0001 9.4216 32.4886 1.0750 7.6819 35.6165 0.0000 0.0000 0.0000 2.3621 1.5802 -0.0192 305.7886 304.7137
0.2500 899.7050 9.4582 31.4837 1.0841 7.6754 33.9511 0.0000 0.0000 0.0000 2.4666 1.6017 -0.0212 304.7837 303.6995
0.3500 889.8688 9.5091 30.4793 1.0962 7.6656 32.3410 0.0000 0.0000 0.0000 2.5610 1.6224 -0.0208 303.7793 302.6831
0.4500 880.0329 9.5778 29.4755 1.1088 7.6531 30.8019 0.0000 0.0000 0.0000 2.6313 1.6422 -0.0197 302.7755 301.6667
0.5500 870.3185 9.6549 28.4720 1.1119 7.6393 29.3259 0.0000 0.0000 0.0000 2.6612 1.6619 -0.0192 301.7719 300.6600
0.6500 860.6890 9.7328 27.4685 1.1085 7.6247 27.9119 0.0000 0.0000 0.0000 2.6787 1.6817 -0.0192 300.7685 299.6600
0.7500 851.0593 9.8103 26.4655 1.1056 7.6092 26.5608 0.0000 0.0000 0.0000 2.7134 1.7014 -0.0195 299.7655 298.6600
0.8500 841.3618 9.9017 25.4650 1.1050 7.5935 25.2751 0.0000 0.0000 0.0000 2.7669 1.7190 -0.0186 298.7650 297.6600
0.9500 831.6559 10.0211 24.4664 1.1064 7.5780 24.0491 0.0000 0.0000 0.0000 2.8277 1.7343 -0.0162 297.7664 296.6600
1.0500 821.9501 10.1641 23.4695 1.1095 7.5630 22.8796 0.0000 0.0000 0.0000 2.8674 1.7478 -0.0141 296.7695 295.6600
1.1500 812.5723 10.3212 22.4741 1.0964 7.5485 21.7547 0.0000 0.0000 0.0000 2.8584 1.7599 -0.0124 295.7741 294.6777
1.2500 803.5363 10.4793 21.4805 1.0666 7.5346 20.6729 0.0000 0.0000 0.0000 2.7656 1.7709 -0.0111 294.7805 293.7138
1.3500 794.2374 10.6292 20.4900 0.9565 7.5204 19.6504 0.0000 0.0000 0.0000 2.5877 1.7807 -0.0100 293.7899 292.8335
1.4500 784.9474 10.7711 19.5026 0.8289 7.5075 18.6771 0.0000 0.0000 0.0000 2.3678 1.7888 -0.0084 292.8026 291.9737
1.5500 775.7369 10.9126 18.5178 0.6994 7.4971 17.7483 0.0000 0.0000 0.0000 2.1308 1.7952 -0.0060 291.8178 291.1184
1.6500 766.5264 11.0380 17.5337 0.5705 7.4832 16.8619 0.0000 0.0000 0.0000 1.9089 1.8028 -0.0056 290.8337 290.2632
1.7500 757.4590 11.1324 16.5515 0.4556 7.4680 16.0143 0.0000 0.0000 0.0000 1.7252 1.8107 -0.0069 289.8515 289.3959
1.8500 748.6066 11.2084 15.5707 0.3600 7.4519 15.2019 0.0000 0.0000 0.0000 1.5649 1.8186 -0.0072 288.8707 288.5107
1.9500 739.7541 11.2739 14.5913 0.2659 7.4376 14.4280 0.0000 0.0000 0.0000 1.3960 1.8253 -0.0065 287.8913 287.6254
2.0500 731.0618 11.3421 13.6127 0.1652 7.4222 13.6870 0.0000 0.0000 0.0000 1.2002 1.8322 -0.0047 286.9127 286.7475
2.1500 722.6667 11.3726 12.6362 0.0528 7.4014 12.9765 0.0000 0.0000 0.0000 0.9881 1.8409 -0.0069 285.9362 285.8833
2.2500 714.2717 11.3633 11.6622 -0.0570 7.3750 12.3011 0.0000 0.0000 0.0000 0.7783 1.8513 -0.0093 284.9622 285.0191
2.3500 705.8766 11.3154 10.6910 -0.1639 7.3429 11.6595 0.0000 0.0000 0.0000 0.5837 1.8633 -0.0116 283.9910 284.1549
2.4500 697.5000 11.2359 9.7225 -0.2643 7.3062 11.0495 0.0000 0.0000 0.0000 0.4313 1.8764 -0.0134 283.0225 283.2868
2.5500 689.1666 11.1395 8.7558 -0.3539 7.2671 10.4686 0.0000 0.0000 0.0000 0.3047 1.8895 -0.0139 282.0558 282.4096
2.6500 680.8298 11.0310 7.7906 -0.4416 7.2260 9.9163 0.0000 0.0000 0.0000 0.1374 1.9026 -0.0135 281.0906 281.5323
2.7500 672.3192 10.9039 6.8274 -0.5183 7.1844 9.3937 0.0000 0.0000 0.0000 -0.0639 1.9162 -0.0134 280.1274 280.6457
2.8500 663.8085 10.7557 5.8663 -0.5930 7.1422 8.8971 0.0000 0.0000 0.0000 -0.2541 1.9303 -0.0136 279.1663 279.7592
2.9500 655.4237 10.5883 4.9069 -0.6625 7.0995 8.4234 0.0000 0.0000 0.0000 -0.4207 1.9447 -0.0137 278.2069 278.8694
3.0500 647.5419 10.4043 3.9476 -0.7186 7.0573 7.9661 0.0000 0.0000 0.0000 -0.5806 1.9595 -0.0135 277.2476 277.9662
3.1500 639.6601 10.2017 2.9784 -0.7847 7.0188 7.5255 0.0000 0.0000 0.0000 -0.7403 1.9747 -0.0133 276.2784 277.0631
3.2500 631.7783 9.9956 2.0211 -0.8389 6.9740 7.1129 0.0144 0.0000 0.0000 -0.7084 1.9909 -0.0134 275.3211 276.1600
3.3500 623.8966 9.8156 1.2441 -0.7128 6.8543 6.8092 0.0872 0.0000 0.0000 -0.3907 2.0081 -0.0137 274.5441 275.2569
3.4500 616.0148 9.6793 0.5618 -0.4920 6.6937 6.5625 0.1705 0.0000 0.0000 0.0941 2.0266 -0.0143 273.8618 274.3538
3.5500 608.2066 9.5960 -0.0515 -0.2005 6.5030 6.3555 0.3085 0.0000 0.0000 0.6842 2.0460 -0.0149 273.2485 273.4490
3.6500 600.9935 9.5769 -0.6366 0.1324 6.3019 6.1614 0.4576 0.0000 0.0000 1.3085 2.0651 -0.0149 272.6634 272.5310
3.7500 593.7803 9.6233 -1.2336 0.4534 6.1045 5.9675 0.6029 0.0000 0.0000 1.9199 2.0846 -0.0147 272.0664 271.6129
3.8500 586.5755 9.7195 -1.8375 0.7662 5.9078 5.7763 0.7454 0.0000 0.0000 2.5031 2.1050 -0.0155 271.4625 270.6962
3.9500 579.5001 9.8685 -2.4398 1.0602 5.7136 5.5902 0.8896 0.0000 0.0000 3.0617 2.1243 -0.0157 270.8602 269.8000
4.0500 572.4246 10.0525 -3.0479 1.3483 5.5248 5.4075 1.0320 0.0000 0.0000 3.3603 2.1424 -0.0150 270.2521 268.9038
4.1500 564.9319 10.2494 -3.6645 1.3923 5.3435 5.2308 1.1704 0.0000 0.0000 3.3866 2.1583 -0.0138 269.6355 268.2432
4.2500 558.0802 10.4376 -4.2878 1.4113 5.1637 5.0512 1.3044 0.0000 0.0000 3.1981 2.1739 -0.0129 269.0122 267.6010
4.3500 551.0048 10.5816 -4.9254 1.1511 4.9825 4.8740 1.4294 0.0000 0.0000 2.7884 2.1891 -0.0129 268.3746 267.2236
4.4500 543.9314 10.7100 -5.5790 0.8788 4.8007 4.6967 1.5452 0.0000 0.0000 2.6939 2.2042 -0.0129 267.7210 266.8422
4.5500 537.0687 10.8585 -6.2419 1.0002 4.6229 4.5204 1.6573 0.0000 0.0000 2.9258 2.2189 -0.0129 267.0581 266.0579
4.6500 530.2059 11.0211 -6.9118 1.1147 4.4481 4.3479 1.7661 0.0000 0.0000 3.1022 2.2336 -0.0129 266.3882 265.2735
4.7500 523.4790 11.1925 -7.5848 1.2260 4.2783 4.1793 1.8739 0.0000 0.0000 3.2298 2.2477 -0.0129 265.7152 264.4892
4.8500 516.7563 11.3741 -8.2616 1.3335 4.1130 4.0155 1.9800 0.0000 0.0000 3.3520 2.2616 -0.0128 265.0384 263.7049
4.9500 510.0336 11.5592 -8.9436 1.4358 3.9519 3.8560 2.0835 0.0000 0.0000 3.4207 2.2754 -0.0129 264.3564 262.9206
5.0500 503.3913 11.7381 -9.6314 1.4794 3.7944 3.7000 2.1837 0.0000 0.0000 3.4030 2.2892 -0.0132 263.6685 262.1891
5.1500 496.7519 11.9089 -10.3273 1.4836 3.6397 3.5476 2.2791 0.0000 0.0000 3.3861 2.3034 -0.0137 262.9727 261.4891
5.2500 489.9850 12.0711 -11.0339 1.5288 3.4883 3.3988 2.3679 0.0000 0.0000 3.3976 2.3184 -0.0148 262.2661 260.7372
5.3500 483.2181 12.2169 -11.7491 1.5656 3.3402 3.2536 2.4511 0.0000 0.0000 3.3503 2.3342 -0.0162 261.5509 259.9854
5.4500 477.7500 12.3443 -12.4585 1.6165 3.1953 3.1070 2.5360 0.0000 0.0000 3.1817 2.3500 -0.0169 260.8415 259.2250
5.5500 471.5000 12.4400 -13.1735 1.5265 3.0538 2.9699 2.6176 0.0000 0.0000 2.7582 2.3656 -0.0169 260.1265 258.6000
5.6500 464.6263 12.4878 -13.8947 1.3391 2.9201 2.8407 2.7079 0.0000 0.0000 2.0569 2.3809 -0.0168 259.4052 258.0661
5.7500 459.1819 12.4540 -14.6065 1.1041 2.7901 2.7104 2.7704 0.0000 0.0000 0.9479 2.3960 -0.0164 258.6935 257.5894
5.8500 453.0504 12.3167 -15.3120 0.6355 2.6670 2.5907 2.8457 0.0000 0.0000 -0.2907 2.4112 -0.0160 257.9880 257.3525
5.9500 446.7610 12.1017 -16.0200 0.2420 2.5476 2.4763 2.9144 0.0000 0.0000 -1.0906 2.4272 -0.0160 257.2800 257.0380
6.0500 441.3174 11.8508 -16.7291 0.0523 2.4302 2.3617 2.9802 0.0000 0.0000 -1.3881 2.4435 -0.0160 256.5709 256.5186
6.1500 435.4855 11.5947 -17.4451 0.0566 2.3166 2.2526 3.0427 0.0000 0.0000 -1.4452 2.4597 -0.0154 255.8548 255.7982
6.2500 429.6536 11.3338 -18.1687 0.0535 2.2067 2.1467 3.1017 0.0000 0.0000 -1.5181 2.4759 -0.0146 255.1313 255.0778
6.3500 423.8217 11.0654 -18.8991 0.0435 2.1004 2.0441 3.1569 0.0000 0.0000 -1.6059 2.4922 -0.0139 254.4009 254.3574
6.4500 417.9897 10.7864 -19.6364 0.0267 1.9975 1.9449 3.2082 0.0000 0.0000 -1.7081 2.5088 -0.0133 253.6636 253.6370
6.5500 412.1578 10.4947 -20.3802 0.0032 1.8981 1.8489 3.2553 0.0000 0.0000 -1.8236 2.5257 -0.0128 252.9198 252.9165
6.6500 406.7693 10.1824 -21.1292 -0.0269 1.8007 1.7546 3.2964 0.0000 0.0000 -1.9511 2.5439 -0.0126 252.1708 252.1977
6.7500 401.6411 9.8494 -21.8839 -0.0636 1.7056 1.6628 3.3301 0.0000 0.0000 -2.0069 2.5639 -0.0130 251.4161 251.4797
6.8500 396.2909 9.5017 -22.6481 -0.0417 1.6138 1.5748 3.3529 0.0000 0.0000 -1.9518 2.5866 -0.0137 250.6519 250.6936
6.9500 390.7672 9.1449 -23.4219 0.0035 1.5259 1.4904 3.3693 0.0000 0.0000 -1.8707 2.6104 -0.0139 249.8781 249.8746
7.0500 385.1935 8.7902 -24.2036 0.0415 1.4419 1.4093 3.3835 0.0000 0.0000 -1.8052 2.6341 -0.0131 249.0964 249.0549
7.1500 379.6197 8.4434 -24.9925 0.0722 1.3612 1.3313 3.3956 0.0000 0.0000 -1.7389 2.6576 -0.0119 248.3074 248.2352
7.2500 374.4272 8.1016 -25.7881 0.1079 1.2828 1.2552 3.4020 0.0000 0.0000 -1.6560 2.6828 -0.0112 247.5119 247.4040
7.3500 369.5728 7.7551 -26.5910 0.1464 1.2065 1.1812 3.3989 0.0000 0.0000 -1.5730 2.7111 -0.0112 246.7090 246.5626
7.4500 364.7184 7.3964 -27.4024 0.1764 1.1330 1.1102 3.3854 0.0000 0.0000 -1.5116 2.7426 -0.0115 245.8976 245.7212
7.5500 359.8000 7.0193 -28.2216 0.1951 1.0629 1.0425 3.3623 0.0000 0.0000 -1.4747 2.7775 -0.0115 245.0784 244.8833
7.6500 354.8000 6.5869 -29.0446 0.2053 0.9966 0.9784 3.3293 0.0000 0.0000 -1.4351 2.8159 -0.0111 244.2553 244.0500
7.7500 349.8000 5.9317 -29.8635 0.2198 0.9341 0.9183 3.2768 0.0000 0.0000 -1.3306 2.8617 -0.0101 243.4365 243.2167
7.8500 344.8846 4.7295 -30.6752 0.2555 0.8747 0.8618 3.1569 0.0000 0.0000 -1.1856 2.9316 -0.0081 242.6247 242.3692
7.9500 340.0100 2.9734 -31.5184 0.2301 0.8151 0.8060 2.8372 0.0000 0.0000 -1.1365 3.0669 -0.0049 241.7816 241.5515
8.0500 335.0349 1.3229 -32.4315 0.0633 0.7451 0.7485 2.2067 0.0000 0.0000 -1.0453 3.2943 -0.0019 240.8685 240.8052
8.1500 330.2418 0.3565 -33.2806 -0.0269 0.6264 0.6987 1.4680 0.0000 0.0000 -0.7876 3.5529 -0.0004 240.0194 240.0463
8.2500 325.7336 0.0041 -34.0823 -0.0499 0.5032 0.6545 0.8765 0.0000 0.0000 -0.5571 3.7575 -0.0000 239.2177 239.2676
8.3500 321.2254 -0.0329 -34.8853 -0.0742 0.4063 0.6126 0.4971 0.0000 0.0000 -0.2636 3.8911 -0.0000 238.4147 238.4889
8.4500 316.5088 0.0250 -35.7124 0.0359 0.3356 0.5723 0.2753 0.0000 0.0000 0.0833 3.9754 -0.0000 237.5876 237.5517
8.5500 312.1012 0.0656 -36.5233 0.1064 0.2822 0.5346 0.1493 0.0000 0.0000 0.2842 4.0307 -0.0001 236.7766 236.6702
8.6500 307.6068 0.0614 -37.2651 0.1243 0.2395 0.5029 0.0788 0.0000 0.0000 0.2450 4.0657 -0.0001 236.0349 235.9107
8.7500 303.1579 0.0387 -37.9051 0.0397 0.2074 0.4779 0.0403 0.0000 0.0000 0.1757 4.0846 -0.0000 235.3949 235.3553
8.8500 298.7826 0.0057 -38.4992 0.0726 0.1845 0.4560 0.0199 0.0000 0.0000 0.0464 4.0867 -0.0000 234.8008 234.7283
8.9500 294.4615 -0.0359 -39.0142 -0.0411 0.1671 0.4386 0.0093 0.0000 0.0000 -0.2829 4.0716 -0.0000 234.2858 234.3269
9.0500 290.2371 -0.0391 -39.5813 -0.1601 0.1523 0.4194 0.0040 0.0000 0.0000 -0.2909 4.0424 -0.0000 233.7187 233.8788
9.1500 286.2214 -0.0172 -40.3707 -0.0484 0.1394 0.3914 0.0015 0.0000 0.0000 -0.0861 3.9987 -0.0000 232.9293 232.9777
9.2500 282.2057 -0.0057 -41.2372 -0.0138 0.1279 0.3621 0.0005 0.0000 0.0000 -0.0232 3.9400 -0.0000 232.0628 232.0766
9.3500 278.1900 -0.0015 -42.1281 -0.0037 0.1175 0.3340 0.0002 0.0000 0.0000 -0.0051 3.8648 -0.0000 231.1719 231.1756
9.4500 274.1743 -0.0003 -43.0264 -0.0009 0.1079 0.3075 0.0000 0.0000 0.0000 -0.0003 3.7707 -0.0000 230.2736 230.2745
9.5500 270.1587 0.0000 -43.9268 -0.0002 0.0991 0.2829 0.0000 0.0000 0.0000 0.0007 3.6544 -0.0000 229.3732 229.3734
9.6500 266.1430 0.0001 -44.8277 -0.0000 0.0908 0.2601 0.0000 0.0000 0.0000 0.0009 3.5107 -0.0000 228.4723 228.4723
9.7500 262.1273 0.0001 -45.7287 0.0000 0.0832 0.2390 0.0000 0.0000 0.0000 0.0012 3.3301 -0.0000 227.5713 227.5712
9.8500 258.1117 0.0002 -46.6295 0.0003 0.0760 0.2194 0.0000 0.0000 0.0000 0.0044 3.0945 -0.0000 226.6705 226.6702
9.9500 254.0960 0.0009 -47.5284 0.0025 0.0692 0.2013 0.0000 0.0000 0.0000 0.0249 2.7911 -0.0000 225.7715 225.7691
10.0500 250.0803 0.0000 -48.4173 0.0147 0.0627 0.1848 0.0000 0.0000 0.0000 0.0000 2.4684 -0.0000 224.8827 224.8680
10.1500 246.3704 0.0000 -49.2537 0.0000 0.0562 0.1703 0.0000 0.0000 0.0000 0.0000 2.1541 0.0000 224.0463 224.0463
10.2500 242.6667 0.0000 -50.0738 0.0000 0.0502 0.1572 0.0000 0.0000 0.0000 0.0000 2.1601 0.0000 223.2262 223.2262
10.3500 238.9630 0.0000 -50.8939 0.0000 0.0447 0.1450 0.0000 0.0000 0.0000 0.0000 2.1661 0.0000 222.4061 222.4061
10.4500 235.2857 0.0000 -51.7167 0.0000 0.0398 0.1336 0.0000 0.0000 0.0000 0.0000 2.1721 0.0000 221.5833 221.5833
10.5500 231.0000 0.0000 -52.3500 0.0000 0.0341 0.1262 0.0000 0.0000 0.0000 0.0000 2.1781 0.0000 220.9500 220.9500
10.6500 227.7626 0.0000 -52.6737 0.0000 0.0288 0.1231 0.0000 0.0000 0.0000 0.0000 2.1841 0.0000 220.6263 220.6263
10.7500 224.5252 0.0000 -52.9975 0.0000 0.0238 0.1201 0.0000 0.0000 0.0000 0.0000 2.1901 0.0000 220.3025 220.3025
10.8500 221.2500 0.0000 -53.0500 0.0000 0.0188 0.1211 0.0000 0.0000 0.0000 0.0000 2.1961 0.0000 220.2500 220.2500
10.9500 217.8714 0.0000 -52.6757 0.0000 0.0129 0.1287 0.0000 0.0000 0.0000 0.0000 2.2021 0.0000 220.6243 220.6243
11.0500 214.5519 0.0000 -53.3396 0.0000 0.0086 0.1206 0.0000 0.0000 0.0000 0.0000 2.2081 0.0000 219.9604 219.9604
11.1500 211.2324 0.0000 -54.0035 0.0000 0.0048 0.1130 0.0000 0.0000 0.0000 0.0000 2.2141 0.0000 219.2965 219.2965
11.2500 208.0214 0.0000 -53.9838 0.0000 0.0046 0.1151 0.0000 0.0000 0.0000 0.0000 2.2201 0.0000 219.3162 219.3162
11.3500 204.8185 0.0000 -53.9126 0.0000 0.0047 0.1179 0.0000 0.0000 0.0000 0.0000 2.2261 0.0000 219.3874 219.3874
11.4500 201.5385 0.0000 -53.9423 0.0000 0.0048 0.1194 0.0000 0.0000 0.0000 0.0000 2.2321 0.0000 219.3577 219.3577
11.5500 198.5198 0.0000 -54.7460 0.0000 0.0044 0.1098 0.0000 0.0000 0.0000 0.0000 2.2381 0.0000 218.5540 218.5540
11.6500 195.4361 0.0000 -55.3628 0.0000 0.0041 0.1034 0.0000 0.0000 0.0000 0.0000 2.2441 0.0000 217.9372 217.9372
11.7500 192.3636 0.0000 -55.7864 0.0000 0.0040 0.0997 0.0000 0.0000 0.0000 0.0000 2.2501 0.0000 217.5136 217.5136
11.8500 189.3728 0.0000 -54.9340 0.0000 0.0038 0.1125 0.0000 0.0000 0.0000 0.0000 2.2561 0.0000 218.3660 218.3660
11.9500 186.4142 0.0000 -53.6322 0.0000 0.0029 0.1340 0.0000 0.0000 0.0000 0.0000 2.2621 0.0000 219.6677 219.6677
12.0500 182.8727 0.0000 -53.8409 0.0000 0.0016 0.1332 0.0000 0.0000 0.0000 0.0000 2.2681 0.0000 219.4591 219.4591
12.1500 180.5958 0.0000 -53.7031 0.0000 0.0023 0.1371 0.0000 0.0000 0.0000 0.0000 2.2741 0.0000 219.5969 219.5969
12.2500 177.6081 0.0000 -52.9649 0.0000 0.0047 0.1525 0.0000 0.0000 0.0000 0.0000 2.2801 0.0000 220.3351 220.3351
12.3500 174.6204 0.0000 -52.2268 0.0000 0.0076 0.1694 0.0000 0.0000 0.0000 0.0000 2.2861 0.0000 221.0732 221.0732
12.4500 171.6327 0.0000 -51.4886 0.0000 0.0111 0.1882 0.0000 0.0000 0.0000 0.0000 2.2921 0.0000 221.8113 221.8113
12.5500 168.6450 0.0000 -50.7505 0.0000 0.0152 0.2090 0.0000 0.0000 0.0000 0.0000 2.2981 0.0000 222.5495 222.5495
12.6500 165.6573 0.0000 -50.0124 0.0000 0.0202 0.2320 0.0000 0.0000 0.0000 0.0000 2.3041 0.0000 223.2876 223.2876
12.7500 163.1129 0.0000 -50.2526 0.0000 0.0198 0.2291 0.0000 0.0000 0.0000 0.0000 2.3101 0.0000 223.0474 223.0474
12.8500 160.6935 0.0000 -50.7687 0.0000 0.0178 0.2189 0.0000 0.0000 0.0000 0.0000 2.3161 0.0000 222.5313 222.5313
12.9500 158.2742 0.0000 -51.2848 0.0000 0.0160 0.2091 0.0000 0.0000 0.0000 0.0000 2.3221 0.0000 222.0152 222.0152
13.0500 155.8548 0.0000 -51.8010 0.0000 0.0143 0.1997 0.0000 0.0000 0.0000 0.0000 2.3281 0.0000 221.4990 221.4990
13.1500 153.4355 0.0000 -52.3171 0.0000 0.0128 0.1908 0.0000 0.0000 0.0000 0.0000 2.3341 0.0000 220.9829 220.9829
13.2500 151.0161 0.0000 -52.8332 0.0000 0.0113 0.1822 0.0000 0.0000 0.0000 0.0000 2.3401 0.0000 220.4668 220.4668
13.3500 148.6697 0.0000 -53.2628 0.0000 0.0101 0.1757 0.0000 0.0000 0.0000 0.0000 2.3461 0.0000 220.0372 220.0372
13.4500 146.3762 0.0000 -53.6298 0.0000 0.0090 0.1707 0.0000 0.0000 0.0000 0.0000 2.3521 0.0000 219.6702 219.6702
13.5500 144.1111 0.0000 -53.5833 0.0000 0.0087 0.1744 0.0000 0.0000 0.0000 0.0000 2.3581 0.0000 219.7167 219.7167
13.6500 141.9378 0.0000 -53.4776 0.0000 0.0087 0.1793 0.0000 0.0000 0.0000 0.0000 2.3641 0.0000 219.8224 219.8224
13.7500 139.8134 0.0000 -53.9328 0.0000 0.0078 0.1723 0.0000 0.0000 0.0000 0.0000 2.3701 0.0000 219.3671 219.3671
13.8500 137.6889 0.0000 -54.3881 0.0000 0.0070 0.1655 0.0000 0.0000 0.0000 0.0000 2.3761 0.0000 218.9119 218.9119
13.9500 135.5645 0.0000 -54.8433 0.0000 0.0063 0.1590 0.0000 0.0000 0.0000 0.0000 2.3821 0.0000 218.4567 218.4567
14.0500 133.4401 0.0000 -55.2986 0.0000 0.0055 0.1527 0.0000 0.0000 0.0000 0.0000 2.3881 0.0000 218.0014 218.0014
14.1500 131.3156 0.0000 -55.7538 0.0000 0.0049 0.1466 0.0000 0.0000 0.0000 0.0000 2.3941 0.0000 217.5462 217.5462
14.2500 129.1912 0.0000 -56.2090 0.0000 0.0043 0.1408 0.0000 0.0000 0.0000 0.0000 2.4001 0.0000 217.0910 217.0910
14.3500 127.1616 0.0000 -55.6985 0.0000 0.0060 0.1525 0.0000 0.0000 0.0000 0.0000 2.4061 0.0000 217.6015 217.6015
14.4500 125.2078 0.0000 -56.1279 0.0000 0.0050 0.1468 0.0000 0.0000 0.0000 0.0000 2.4121 0.0000 217.1721 217.1721
14.5500 123.2345 0.0000 -56.1821 0.0000 0.0047 0.1482 0.0000 0.0000 0.0000 0.0000 2.4181 0.0000 217.1179 217.1179
14.6500 121.3206 0.0000 -55.5122 0.0000 0.0060 0.1636 0.0000 0.0000 0.0000 0.0000 2.4241 0.0000 217.7878 217.7878
14.7500 119.4464 0.0000 -55.1692 0.0000 0.0068 0.1733 0.0000 0.0000 0.0000 0.0000 2.4301 0.0000 218.1308 218.1308
14.8500 117.6607 0.0000 -55.5538 0.0000 0.0061 0.1678 0.0000 0.0000 0.0000 0.0000 2.4361 0.0000 217.7462 217.7462
14.9500 115.8750 0.0000 -55.9384 0.0000 0.0055 0.1624 0.0000 0.0000 0.0000 0.0000 2.4421 0.0000 217.3615 217.3615
15.0500 114.0893 0.0000 -56.3231 0.0000 0.0049 0.1572 0.0000 0.0000 0.0000 0.0000 2.4481 0.0000 216.9769 216.9769
15.1500 112.3036 0.0000 -56.7077 0.0000 0.0043 0.1522 0.0000 0.0000 0.0000 0.0000 2.4541 0.0000 216.5923 216.5923
15.2500 110.5179 0.0000 -57.0923 0.0000 0.0037 0.1474 0.0000 0.0000 0.0000 0.0000 2.4601 0.0000 216.2077 216.2077
15.3500 108.7322 0.0000 -57.4769 0.0000 0.0032 0.1427 0.0000 0.0000 0.0000 0.0000 2.4661 0.0000 215.8231 215.8231
15.4500 106.9496 0.0000 -57.8651 0.0000 0.0028 0.1381 0.0000 0.0000 0.0000 0.0000 2.4721 0.0000 215.4349 215.4349
15.5500 105.2689 0.0000 -58.3693 0.0000 0.0038 0.1316 0.0000 0.0000 0.0000 0.0000 2.4781 0.0000 214.9307 214.9307
15.6500 103.6275 0.0000 -58.6147 0.0000 0.0035 0.1295 0.0000 0.0000 0.0000 0.0000 2.4841 0.0000 214.6853 214.6853
15.7500 101.9935 0.0000 -58.8108 0.0000 0.0031 0.1283 0.0000 0.0000 0.0000 0.0000 2.4901 0.0000 214.4892 214.4892
15.8500 100.3595 0.0000 -59.0069 0.0000 0.0026 0.1272 0.0000 0.0000 0.0000 0.0000 2.4961 0.0000 214.2931 214.2931
15.9500 98.6590 0.0000 -59.0947 0.0000 0.0026 0.1279 0.0000 0.0000 0.0000 0.0000 2.5021 0.0000 214.2053 214.2053
16.0500 96.9398 0.0000 -59.1520 0.0000 0.0026 0.1292 0.0000 0.0000 0.0000 0.0000 2.5081 0.0000 214.1480 214.1480
16.1500 95.2206 0.0000 -59.2093 0.0000 0.0026 0.1306 0.0000 0.0000 0.0000 0.0000 2.5141 0.0000 214.0907 214.0907
16.2500 93.6139 0.0000 -59.1556 0.0000 0.0027 0.1338 0.0000 0.0000 0.0000 0.0000 2.5201 0.0000 214.1444 214.1444
16.3500 92.2826 0.0000 -58.8302 0.0000 0.0028 0.1415 0.0000 0.0000 0.0000 0.0000 2.5261 0.0000 214.4698 214.4698
16.4500 90.9512 0.0000 -58.5047 0.0000 0.0030 0.1497 0.0000 0.0000 0.0000 0.0000 2.5321 0.0000 214.7953 214.7953
16.5500 89.6198 0.0000 -58.1793 0.0000 0.0032 0.1584 0.0000 0.0000 0.0000 0.0000 2.5381 0.0000 215.1207 215.1207
16.6500 88.2885 0.0000 -57.8538 0.0000 0.0034 0.1676 0.0000 0.0000 0.0000 0.0000 2.5441 0.0000 215.4462 215.4462
16.7500 86.9571 0.0000 -57.5284 0.0000 0.0035 0.1773 0.0000 0.0000 0.0000 0.0000 2.5501 0.0000 215.7716 215.7716
16.8500 85.6257 0.0000 -57.2029 0.0000 0.0038 0.1876 0.0000 0.0000 0.0000 0.0000 2.5561 0.0000 216.0970 216.0970
16.9500 84.2639 0.0000 -56.9028 0.0000 0.0040 0.1980 0.0000 0.0000 0.0000 0.0000 2.5621 0.0000 216.3972 216.3972
17.0500 82.8719 0.0000 -56.6628 0.0000 0.0041 0.2075 0.0000 0.0000 0.0000 0.0000 2.5681 0.0000 216.6372 216.6372
17.1500 81.4484 0.0000 -56.8051 0.0000 0.0041 0.2074 0.0000 0.0000 0.0000 0.0000 2.5741 0.0000 216.4948 216.4948
